time(ns),x,y,z,qw,qx,qy,qz
1718164051300270080,-62.2671,325.628,14.477,0.689241,-0.000113057,-0.00895288,-0.724477
1718164051400388096,-62.2675,325.629,14.4753,0.689242,-0.000102219,-0.00894852,-0.724476
1718164051500506880,-62.2679,325.63,14.4737,0.689245,-9.35768e-05,-0.00894094,-0.724473
1718164051600633088,-62.2683,325.631,14.472,0.689249,-9.83817e-05,-0.00894446,-0.72447
1718164051700747008,-62.2689,325.632,14.4704,0.689254,-8.29376e-05,-0.00894544,-0.724465
1718164051800840960,-62.2693,325.633,14.4688,0.689256,-9.27567e-05,-0.00894754,-0.724463
1718164051900899072,-62.2697,325.634,14.4671,0.689258,-0.000119379,-0.0089446,-0.724461
1718164052000931072,-62.2702,325.635,14.4655,0.689262,-0.000102666,-0.00894996,-0.724457
1718164052100943104,-62.2707,325.636,14.4638,0.689264,-8.58067e-05,-0.00896381,-0.724455
1718164052200950016,-62.271,325.637,14.4622,0.689267,-8.50948e-05,-0.00895623,-0.724452
1718164052300939008,-62.2713,325.638,14.4606,0.689272,-8.39803e-05,-0.00894688,-0.724447
1718164052400924928,-62.2717,325.638,14.459,0.68928,-8.18371e-05,-0.00895781,-0.724439
1718164052500896000,-62.2721,325.639,14.4575,0.68928,-0.000100357,-0.00897866,-0.72444
1718164052600860928,-62.2724,325.64,14.4559,0.689276,-8.48931e-05,-0.00897348,-0.724444
1718164052700826880,-62.2728,325.641,14.4544,0.689278,-9.51141e-05,-0.00897792,-0.724441
1718164052800794880,-62.2732,325.641,14.453,0.689279,-8.16163e-05,-0.00898372,-0.724441
1718164052900762112,-62.2736,325.642,14.4515,0.689279,-5.25379e-05,-0.00896801,-0.724441
1718164053000729088,-62.274,325.643,14.4501,0.689288,-6.02928e-05,-0.00898522,-0.724432
1718164053100704000,-62.2744,325.643,14.4486,0.689289,-6.58742e-05,-0.00898953,-0.724431
1718164053200699904,-62.2748,325.644,14.4472,0.689288,-6.93446e-05,-0.00898987,-0.724431
1718164053300707072,-62.2753,325.644,14.4458,0.689293,-7.92242e-05,-0.00901449,-0.724426
1718164053400715008,-62.2757,325.645,14.4444,0.689295,-8.10808e-05,-0.00901241,-0.724424
1718164053500710912,-62.2762,325.645,14.443,0.689302,-5.61615e-05,-0.00900188,-0.724418
1718164053600692992,-62.2767,325.646,14.4416,0.689302,-5.24045e-05,-0.00900593,-0.724418
1718164053700677120,-62.2772,325.646,14.4402,0.689303,-6.01158e-05,-0.00899408,-0.724418
1718164053800675072,-62.2777,325.647,14.4388,0.689306,-6.32929e-05,-0.0089937,-0.724415
1718164053900677888,-62.2782,325.647,14.4374,0.689309,-8.23473e-05,-0.00901238,-0.724411
1718164054000689920,-62.2788,325.648,14.4361,0.689317,-9.02218e-05,-0.00901513,-0.724403
1718164054100692992,-62.2793,325.648,14.4348,0.689315,-8.15711e-05,-0.00900467,-0.724406
1718164054200695040,-62.2798,325.648,14.4334,0.689316,-8.6352e-05,-0.00899222,-0.724405
1718164054300687872,-62.2804,325.648,14.4321,0.689318,-7.83143e-05,-0.00898815,-0.724403
1718164054400676096,-62.281,325.649,14.4308,0.689315,-7.15863e-05,-0.00900815,-0.724406
1718164054500657920,-62.2815,325.649,14.4294,0.689321,-0.000152923,-0.00906723,-0.7244
1718164054600638976,-62.2822,325.646,14.4278,0.689298,-0.000267743,-0.00918986,-0.724419
1718164054700613120,-62.2832,325.64,14.4264,0.689301,-0.000341584,-0.00923841,-0.724416
1718164054800570112,-62.2843,325.629,14.4253,0.689291,-0.000359961,-0.00920416,-0.724426
1718164054900526080,-62.2857,325.615,14.4241,0.689263,-0.000393345,-0.00921906,-0.724452
1718164055000484096,-62.2876,325.596,14.423,0.689245,-0.000376611,-0.00921531,-0.724469
1718164055100432896,-62.2895,325.573,14.422,0.689227,-0.000379845,-0.00919278,-0.724487
1718164055200386048,-62.2916,325.547,14.4209,0.689204,-0.000479058,-0.00920994,-0.724508
1718164055300323072,-62.294,325.515,14.4199,0.689196,-0.000563157,-0.0092069,-0.724517
1718164055400260096,-62.2968,325.479,14.4189,0.689196,-0.000615683,-0.00923699,-0.724516
1718164055500204032,-62.2998,325.439,14.4178,0.689184,-0.000679674,-0.00928729,-0.724527
1718164055600152064,-62.3033,325.393,14.4167,0.68919,-0.00069779,-0.00932991,-0.72452
1718164055700101888,-62.307,325.343,14.4157,0.689226,-0.000732417,-0.0093834,-0.724485
1718164055800054016,-62.3108,325.289,14.4148,0.689225,-0.000788935,-0.00940019,-0.724486
1718164055900016896,-62.3149,325.23,14.4141,0.689256,-0.000785443,-0.00942395,-0.724456
1718164055999990016,-62.3193,325.167,14.4132,0.689351,-0.00084795,-0.0094591,-0.724366
1718164056099963904,-62.3235,325.1,14.4124,0.689448,-0.000893582,-0.00943922,-0.724273
1718164056199947008,-62.3279,325.028,14.4114,0.689567,-0.000941321,-0.00940242,-0.72416
1718164056299959040,-62.3328,324.952,14.4104,0.689725,-0.000924203,-0.00935148,-0.72401
1718164056399985920,-62.3377,324.871,14.4095,0.689891,-0.000931381,-0.00931918,-0.723853
1718164056500026112,-62.3426,324.787,14.4085,0.69006,-0.00112284,-0.00936991,-0.72369
1718164056600078080,-62.3478,324.698,14.4079,0.690253,-0.00124129,-0.00940755,-0.723506
1718164056700147968,-62.3534,324.605,14.4076,0.690475,-0.00129278,-0.00941271,-0.723294
1718164056800240128,-62.3592,324.506,14.407,0.690683,-0.00142074,-0.00957101,-0.723093
1718164056900336128,-62.3655,324.4,14.4064,0.690907,-0.0014938,-0.00976899,-0.722876
1718164057000434944,-62.3728,324.288,14.4056,0.691169,-0.00140411,-0.0100302,-0.722622
1718164057100530944,-62.3796,324.169,14.4047,0.691505,-0.00153984,-0.0102464,-0.722298
1718164057200624128,-62.3854,324.042,14.4046,0.69187,-0.00161706,-0.0100097,-0.721951
1718164057300708096,-62.3911,323.909,14.4049,0.692284,-0.00171733,-0.00968126,-0.721558
1718164057400769024,-62.3978,323.77,14.4046,0.692743,-0.00188346,-0.00962345,-0.721118
1718164057500805888,-62.4042,323.625,14.4041,0.693164,-0.00199831,-0.00942332,-0.720715
1718164057600805120,-62.411,323.475,14.4043,0.693688,-0.00218075,-0.00935541,-0.720212
1718164057700796928,-62.4167,323.32,14.4054,0.694034,-0.00246632,-0.00891227,-0.719883
1718164057800788992,-62.4238,323.158,14.4063,0.694186,-0.00228834,-0.00850613,-0.719742
1718164057900772096,-62.4333,322.992,14.4062,0.694282,-0.00164958,-0.0083474,-0.719653
1718164058000752896,-62.443,322.821,14.4053,0.694197,-0.00130867,-0.00852101,-0.719733
1718164058100730880,-62.4516,322.646,14.4045,0.694137,-0.00146148,-0.0085438,-0.719791
1718164058200702976,-62.4607,322.466,14.4041,0.694091,-0.00144661,-0.00842423,-0.719836
1718164058300685056,-62.4692,322.282,14.4031,0.693841,-0.00167533,-0.0082134,-0.720079
1718164058400664064,-62.4792,322.093,14.4028,0.693608,-0.00175542,-0.00831572,-0.720303
1718164058500638976,-62.4899,321.901,14.4029,0.693438,-0.0016556,-0.00815131,-0.720469
1718164058600621056,-62.5014,321.703,14.4022,0.693182,-0.00120681,-0.00807589,-0.720716
1718164058700602112,-62.5124,321.503,14.4014,0.692889,-0.00110427,-0.00802189,-0.720999
1718164058800584960,-62.5234,321.299,14.4011,0.692671,-0.00133754,-0.00807506,-0.721208
1718164058900550912,-62.5341,321.09,14.4013,0.69244,-0.00145119,-0.00770997,-0.721433
1718164059000518912,-62.5452,320.876,14.4013,0.692174,-0.00125731,-0.00739736,-0.721692
1718164059100502016,-62.558,320.658,14.4012,0.692028,-0.0010923,-0.00736573,-0.721832
1718164059200485120,-62.5728,320.435,14.3996,0.691937,-0.000822609,-0.00788925,-0.721914
1718164059300459008,-62.5866,320.205,14.3976,0.69182,-0.000614278,-0.00794616,-0.722026
1718164059400411904,-62.5996,319.969,14.396,0.691753,-0.000315046,-0.00762341,-0.722094
1718164059500363008,-62.6116,319.728,14.3948,0.691745,-0.00050168,-0.00702651,-0.722108
1718164059600313088,-62.6225,319.48,14.3945,0.691614,-0.000507829,-0.00594373,-0.722243
1718164059700254976,-62.6339,319.225,14.3939,0.691721,-0.000244628,-0.00432195,-0.722152
1718164059800211968,-62.644,318.965,14.392,0.691831,-0.000273746,-0.00242467,-0.722056
1718164059900182016,-62.6552,318.702,14.3897,0.69192,-2.49622e-05,-0.00106577,-0.721974
1718164060000139008,-62.6713,318.437,14.3884,0.692431,0.000809895,-0.00134798,-0.721482
1718164060100116992,-62.6945,318.174,14.3894,0.692758,0.00236588,-0.00398607,-0.721155
1718164060200101120,-62.7165,317.91,14.3906,0.692663,0.00323106,-0.0062825,-0.721226
1718164060300055040,-62.732,317.644,14.3902,0.692892,0.00319859,-0.00716436,-0.720999
1718164060400005120,-62.7408,317.375,14.3876,0.693529,0.00172925,-0.00663596,-0.720396
1718164060499976960,-62.7481,317.105,14.3846,0.693829,0.000121651,-0.00606519,-0.720114
1718164060599951872,-62.7582,316.829,14.3808,0.694112,-0.00126103,-0.00614119,-0.71984
1718164060699937024,-62.7702,316.548,14.3759,0.694463,-0.00274955,-0.00711408,-0.719488
1718164060799947008,-62.7809,316.26,14.3709,0.694892,-0.00469196,-0.00795004,-0.719055
1718164060899994112,-62.7912,315.963,14.3675,0.695262,-0.00583964,-0.00832946,-0.718684
1718164061000043008,-62.8077,315.657,14.3695,0.695797,-0.00430676,-0.00851635,-0.718175
1718164061100101120,-62.8279,315.345,14.3741,0.69647,-0.00201547,-0.00865565,-0.717531
1718164061200196096,-62.8427,315.03,14.3759,0.696659,-0.00102375,-0.00887181,-0.717347
1718164061300293120,-62.8522,314.712,14.3765,0.697137,-0.00148741,-0.00817237,-0.71689
1718164061400390912,-62.8623,314.391,14.3763,0.697895,-0.00175133,-0.00786155,-0.716155
1718164061500492032,-62.8718,314.065,14.3754,0.69859,-0.00220046,-0.00734133,-0.715481
1718164061600605952,-62.8823,313.734,14.3759,0.699112,-0.00181693,-0.00722649,-0.714973
1718164061700704000,-62.894,313.401,14.3776,0.699841,-0.00144586,-0.00725948,-0.714261
1718164061800765952,-62.9046,313.064,14.3781,0.700475,-0.00102641,-0.00723345,-0.71364
1718164061900786944,-62.9133,312.722,14.3775,0.701063,-0.000596734,-0.00675999,-0.713067
1718164062000764928,-62.9223,312.377,14.3762,0.701794,-0.000514623,-0.00674667,-0.712348
1718164062100741120,-62.9308,312.028,14.3757,0.70246,-0.000370771,-0.00689359,-0.71169
1718164062200717056,-62.9379,311.675,14.3754,0.703109,-0.00037462,-0.00661822,-0.711052
1718164062300687872,-62.9436,311.318,14.3742,0.703878,-0.000307217,-0.00630877,-0.710293
1718164062400651008,-62.9489,310.956,14.3738,0.704969,0.000209499,-0.00570198,-0.709215
1718164062500637952,-62.9546,310.589,14.3732,0.706118,0.000935575,-0.00540242,-0.708073
1718164062600632064,-62.9585,310.22,14.3705,0.707194,0.0011682,-0.00545654,-0.706997
1718164062700634112,-62.961,309.847,14.3676,0.708274,0.00147258,-0.00529267,-0.705916
1718164062800638976,-62.9641,309.469,14.3659,0.709442,0.00236505,-0.00526132,-0.70474
1718164062900649984,-62.9646,309.088,14.3649,0.71053,0.00282233,-0.00486241,-0.703645
1718164063000635904,-62.9632,308.705,14.3626,0.711531,0.00299942,-0.00479277,-0.702632
1718164063100630016,-62.9605,308.318,14.3591,0.712696,0.0027869,-0.0048691,-0.701451
1718164063200645120,-62.9574,307.928,14.3555,0.713691,0.00259999,-0.00519824,-0.700437
1718164063300666880,-62.9524,307.534,14.3526,0.714486,0.00237009,-0.00508659,-0.699627
1718164063400668928,-62.9468,307.136,14.3489,0.715222,0.00213486,-0.00495692,-0.698877
1718164063500659968,-62.9411,306.734,14.3451,0.715792,0.00211202,-0.0049252,-0.698293
1718164063600636928,-62.9356,306.33,14.342,0.716286,0.00202823,-0.00514628,-0.697784
1718164063700611072,-62.9288,305.923,14.3394,0.716758,0.00159576,-0.00530717,-0.6973
1718164063800571904,-62.9206,305.512,14.3373,0.7172,0.00139992,-0.00504457,-0.696848
1718164063900528128,-62.9128,305.097,14.335,0.717676,0.00143341,-0.00472478,-0.696359
1718164064000482048,-62.9045,304.681,14.3318,0.717977,0.0012887,-0.00484017,-0.696049
1718164064100431104,-62.8957,304.263,14.3281,0.718315,0.000909793,-0.00505073,-0.695699
1718164064200376064,-62.8865,303.842,14.3253,0.718649,0.000850253,-0.00486976,-0.695355
1718164064300335104,-62.8762,303.42,14.3239,0.718974,0.00101818,-0.00417072,-0.695024
1718164064400282880,-62.8659,302.998,14.3225,0.719266,0.00107416,-0.0038334,-0.694724
1718164064500250112,-62.8552,302.577,14.32,0.719592,0.000991754,-0.00356016,-0.694387
1718164064600231936,-62.8445,302.156,14.3167,0.719866,0.000958652,-0.0033603,-0.694104
1718164064700211968,-62.8342,301.737,14.3141,0.720198,0.000919622,-0.00359681,-0.693758
1718164064800186112,-62.8232,301.317,14.3116,0.720782,0.000772423,-0.00375569,-0.693151
1718164064900175872,-62.8109,300.897,14.3086,0.721364,0.000756245,-0.00390277,-0.692544
1718164065000167936,-62.7978,300.476,14.3057,0.722078,0.000687095,-0.00379967,-0.691801
1718164065100163072,-62.7836,300.054,14.3026,0.722691,0.000603392,-0.00385529,-0.691161
1718164065200154880,-62.7682,299.633,14.3,0.72332,5.67159e-05,-0.0039227,-0.690502
1718164065300156928,-62.7518,299.211,14.2984,0.72397,-0.000229793,-0.00384671,-0.689821
1718164065400189952,-62.7336,298.787,14.2961,0.72458,-0.000631871,-0.00348795,-0.689182
1718164065500174080,-62.7164,298.364,14.2933,0.725218,-0.000830507,-0.00362096,-0.68851
1718164065600167936,-62.6987,297.939,14.2902,0.725853,-0.000992865,-0.00368761,-0.68784
1718164065700150016,-62.6799,297.514,14.2874,0.726335,-0.00111724,-0.00382488,-0.687329
1718164065800116992,-62.6615,297.088,14.2865,0.726907,-0.000994589,-0.00391669,-0.686724
1718164065900082944,-62.6421,296.66,14.2857,0.727399,-0.000743316,-0.00380278,-0.686203
1718164066000050944,-62.6219,296.231,14.2834,0.727769,-0.000428007,-0.00359064,-0.685813
1718164066099993088,-62.6019,295.803,14.2809,0.728168,-0.000250231,-0.00375833,-0.685388
1718164066199996928,-62.5814,295.373,14.2783,0.728509,-3.7783e-05,-0.00381648,-0.685026
1718164066299991040,-62.5595,294.943,14.2758,0.728816,-3.42803e-05,-0.00369001,-0.6847
1718164066399959040,-62.537,294.511,14.2743,0.729139,-0.000211004,-0.0035125,-0.684356
1718164066500004096,-62.5145,294.079,14.2725,0.729376,-0.00046737,-0.00375095,-0.684102
1718164066600009984,-62.494,293.645,14.2692,0.729611,-0.000280328,-0.00445018,-0.683848
1718164066700056064,-62.4728,293.208,14.2659,0.72986,0.000117565,-0.00464841,-0.683581
1718164066800133120,-62.4516,292.77,14.263,0.730063,0.000794381,-0.00482665,-0.683362
1718164066900227072,-62.4287,292.33,14.2602,0.730175,0.000752673,-0.00491301,-0.683242
1718164067000327936,-62.4032,291.889,14.2585,0.73022,0.000654496,-0.00425336,-0.683198
1718164067100446976,-62.3788,291.446,14.2567,0.730328,0.000994903,-0.00377129,-0.683086
1718164067200574976,-62.3563,291.002,14.254,0.730348,0.00119277,-0.00389189,-0.683063
1718164067300658944,-62.3336,290.558,14.2503,0.730156,0.00118154,-0.00421667,-0.683267
1718164067400748032,-62.3106,290.112,14.2468,0.730032,0.000948366,-0.00442723,-0.683398
1718164067500857088,-62.2873,289.664,14.2444,0.729893,0.000713725,-0.00444125,-0.683547
1718164067600901888,-62.2638,289.215,14.2416,0.729587,0.000311159,-0.0045243,-0.683873
1718164067700911104,-62.2419,288.763,14.2382,0.729234,0.000148581,-0.00478495,-0.684248
1718164067800913920,-62.2203,288.31,14.2354,0.728793,-1.0252e-06,-0.00485273,-0.684717
1718164067900913920,-62.1998,287.855,14.2332,0.728333,-0.000229259,-0.00534213,-0.685202
1718164068000911872,-62.1793,287.398,14.232,0.727865,-0.000581825,-0.00570644,-0.685697
1718164068100910080,-62.1581,286.94,14.231,0.727354,-0.00106998,-0.00552878,-0.68624
1718164068200904960,-62.1368,286.479,14.2292,0.726805,-0.00154664,-0.00526994,-0.686822
1718164068300887040,-62.1169,286.017,14.2274,0.726342,-0.00220848,-0.00531004,-0.687309
1718164068400864000,-62.098,285.554,14.2266,0.725896,-0.00273252,-0.00551441,-0.687776
1718164068500840960,-62.08,285.089,14.2268,0.725436,-0.00275343,-0.00532655,-0.688263
1718164068600818944,-62.0629,284.622,14.2269,0.724887,-0.00268413,-0.00514572,-0.688843
1718164068700793088,-62.0458,284.156,14.2273,0.724356,-0.00309019,-0.00525536,-0.689399
1718164068800752128,-62.029,283.69,14.2272,0.723887,-0.0036907,-0.00533618,-0.689888
1718164068900698112,-62.0164,283.22,14.2271,0.72341,-0.00279649,-0.00583565,-0.690389
1718164069000647936,-62.0037,282.747,14.2259,0.722904,-0.00173916,-0.00519951,-0.690926
1718164069100600064,-61.9878,282.275,14.2241,0.722441,-0.00173666,-0.00425017,-0.691417
1718164069200560896,-61.9712,281.803,14.2246,0.722165,-0.00218961,-0.00356922,-0.691708
1718164069300531968,-61.9563,281.33,14.2268,0.721934,-0.00256871,-0.00321243,-0.69195
1718164069400509952,-61.9453,280.856,14.2269,0.72161,-0.00167894,-0.00336854,-0.692289
1718164069500476928,-61.9408,280.384,14.2228,0.721356,-0.000852726,-0.00563944,-0.69254
1718164069600460032,-61.9315,279.912,14.2192,0.720967,-0.00140232,-0.00702919,-0.692932
1718164069700430080,-61.9156,279.439,14.2184,0.72075,-0.00283616,-0.00699785,-0.693154
1718164069800395008,-61.8965,278.964,14.2214,0.720834,-0.0039534,-0.00534543,-0.693076
1718164069900368896,-61.8815,278.491,14.219,0.720856,-0.00505403,-0.00563158,-0.693044
1718164070000337920,-61.8712,278.016,14.2174,0.720996,-0.00498019,-0.00635681,-0.692893
1718164070100310016,-61.8621,277.537,14.219,0.721152,-0.00324296,-0.00602476,-0.692743
1718164070200297984,-61.8501,277.058,14.2223,0.721162,-0.00207762,-0.00521991,-0.692744
1718164070300282112,-61.8347,276.583,14.2244,0.721233,-0.00232847,-0.00462751,-0.692673
1718164070400263936,-61.8196,276.111,14.2258,0.721445,-0.00328062,-0.00488663,-0.692446
1718164070500248064,-61.807,275.641,14.2276,0.72166,-0.00382579,-0.00586995,-0.692212
1718164070600235008,-61.7938,275.171,14.2268,0.721715,-0.00476995,-0.00688985,-0.69214
1718164070700228096,-61.7787,274.701,14.2257,0.721794,-0.00556439,-0.00723279,-0.692048
1718164070800224000,-61.7639,274.231,14.2261,0.722081,-0.00581366,-0.00725031,-0.691746
1718164070900222976,-61.7501,273.759,14.2288,0.722277,-0.00518129,-0.00693585,-0.691549
1718164071000222976,-61.7355,273.286,14.2332,0.722397,-0.00412665,-0.00577377,-0.691442
1718164071100217088,-61.7216,272.815,14.2373,0.722496,-0.00319509,-0.0053367,-0.691348
1718164071200209920,-61.7074,272.348,14.2396,0.72261,-0.00348521,-0.00578081,-0.691223
1718164071300211968,-61.692,271.881,14.2409,0.722624,-0.00379534,-0.00598854,-0.691204
1718164071400194048,-61.676,271.411,14.2413,0.722657,-0.00391818,-0.00555113,-0.691173
1718164071500166912,-61.6601,270.942,14.2408,0.722596,-0.00422029,-0.00548894,-0.691236
1718164071600133120,-61.6444,270.474,14.2409,0.722571,-0.00476414,-0.00569502,-0.691257
1718164071700092928,-61.6296,270.003,14.2436,0.722639,-0.00470539,-0.00563116,-0.691187
1718164071800066048,-61.6158,269.532,14.247,0.722636,-0.00429052,-0.00555824,-0.691193
1718164071900046080,-61.601,269.062,14.248,0.722531,-0.00469969,-0.00594556,-0.691297
1718164072000013056,-61.5858,268.593,14.2479,0.722523,-0.00529335,-0.00644873,-0.691296
1718164072099979008,-61.5714,268.122,14.2494,0.72257,-0.00536831,-0.00667785,-0.691245
1718164072199948032,-61.5566,267.65,14.2522,0.722476,-0.00527509,-0.00647018,-0.691346
1718164072299930112,-61.5412,267.18,14.2553,0.722361,-0.00557084,-0.00643483,-0.691463
1718164072399940096,-61.5262,266.711,14.2584,0.722365,-0.00580716,-0.00644139,-0.691458
1718164072499970048,-61.5116,266.243,14.2612,0.722379,-0.00601939,-0.00655975,-0.69144
1718164072600028928,-61.497,265.777,14.2646,0.722332,-0.00656575,-0.00688089,-0.691481
1718164072700110080,-61.4827,265.313,14.2676,0.722275,-0.00713497,-0.00754384,-0.691528
1718164072800207104,-61.4705,264.846,14.2704,0.72229,-0.00620997,-0.00769476,-0.691519
1718164072900305920,-61.4586,264.377,14.2718,0.722429,-0.00430086,-0.0068728,-0.691398
1718164073000410880,-61.4456,263.909,14.2724,0.722555,-0.00255359,-0.00574264,-0.691285
1718164073100529920,-61.4291,263.443,14.2737,0.722546,-0.00189452,-0.00409789,-0.691309
1718164073200663040,-61.4107,262.979,14.2781,0.722435,-0.00146338,-0.00234963,-0.691433
1718164073300762880,-61.3977,262.517,14.2806,0.722509,-0.000732295,-0.0020348,-0.691358
1718164073400857088,-61.3899,262.06,14.2775,0.722545,0.000133339,-0.003853,-0.691313
1718164073500930048,-61.3776,261.603,14.2721,0.722351,-0.000216152,-0.00467634,-0.691511
1718164073600971008,-61.3636,261.148,14.2676,0.722106,-0.000672976,-0.00526233,-0.691762
1718164073700983040,-61.3477,260.692,14.2651,0.722016,-0.00104937,-0.00445648,-0.691861
1718164073800974080,-61.3344,260.235,14.2641,0.721829,1.3767e-05,-0.00354492,-0.692062
1718164073900952064,-61.322,259.782,14.2617,0.721637,0.000276391,-0.00325589,-0.692263
1718164074000925952,-61.3108,259.333,14.2589,0.721318,0.00035249,-0.00379252,-0.692594
